# XDI/1.0 Demeter/0.9.26
# Beamline.name: BM08-LISA
# Column.1: energy eV
# Column.2: mutrans
# Element.edge: K
# Element.symbol: Cu
# Facility.name: ESRF
# Facility.xray_source: Bending magnet
# Mono.d_spacing: 3.134692
# Mono.name: Si(111)
# Mono.notes: LNT cooled
# Sample.formula: Cu
# Sample.name: Cu metal foil
# Scan.start_time: 2023-06-27T17:30:10
# ///
# room temperature
#------------------------
#   energy  mutrans     
  8780.3263       0.21410661       
  8785.1052       0.21311910       
  8789.9326       0.21227465       
  8794.8595       0.21133645       
  8799.7520       0.21037548       
  8804.6485       0.20933358       
  8809.6224       0.20832874       
  8814.5928       0.20733421       
  8819.5514       0.20624571       
  8824.5375       0.20523125       
  8829.5613       0.20420662       
  8834.5557       0.20319982       
  8839.5399       0.20219663       
  8844.5257       0.20119914       
  8849.4996       0.20021119       
  8854.4017       0.19923191       
  8859.3980       0.19829169       
  8864.3722       0.19730362       
  8869.2937       0.19633909       
  8874.3106       0.19539984       
  8879.3037       0.19449868       
  8884.2644       0.19354171       
  8889.2672       0.19260954       
  8894.3227       0.19167388       
  8899.3185       0.19083286       
  8904.3584       0.18997059       
  8909.4153       0.18911629       
  8914.3661       0.18832158       
  8919.3490       0.18756546       
  8924.3720       0.18681950       
  8929.2892       0.18617402       
  8934.2790       0.18558814       
  8939.1654       0.18509610       
  8944.0409       0.18480690       
  8949.0148       0.18470170       
  8953.9678       0.18500053       
  8958.9885       0.18581618       
  8959.2191       0.18591115       
  8959.4583       0.18597222       
  8959.7209       0.18603581       
  8960.0033       0.18614744       
  8960.2634       0.18622715       
  8960.5009       0.18630865       
  8960.7325       0.18641334       
  8960.9839       0.18650708       
  8961.2604       0.18660548       
  8961.5602       0.18673011       
  8961.7944       0.18683886       
  8962.0148       0.18695984       
  8962.2490       0.18706088       
  8962.5074       0.18717882       
  8962.7779       0.18727875       
  8963.0269       0.18737446       
  8963.2542       0.18753943       
  8963.4781       0.18765910       
  8963.7210       0.18780655       
  8963.9882       0.18795670       
  8964.2614       0.18811487       
  8964.5061       0.18827615       
  8964.7577       0.18845861       
  8964.9956       0.18864518       
  8965.2593       0.18885029       
  8965.5413       0.18904865       
  8965.7999       0.18924947       
  8966.0360       0.18947632       
  8966.2661       0.18974631       
  8966.5170       0.18999647       
  8966.7921       0.19021304       
  8967.0612       0.19047121       
  8967.3000       0.19071890       
  8967.5224       0.19103264       
  8967.7534       0.19132046       
  8968.0113       0.19162459       
  8968.2830       0.19195864       
  8968.5634       0.19236771       
  8968.7911       0.19276885       
  8969.0161       0.19317151       
  8969.2611       0.19360593       
  8969.5312       0.19410067       
  8969.8056       0.19459988       
  8970.0506       0.19511769       
  8970.2792       0.19564496       
  8970.5165       0.19617353       
  8970.7832       0.19665994       
  8971.0689       0.19721702       
  8971.3339       0.19784088       
  8971.5730       0.19853556       
  8971.8094       0.19925643       
  8972.0597       0.20008785       
  8972.3404       0.20094462       
  8972.6089       0.20191860       
  8972.8489       0.20292651       
  8973.0984       0.20417101       
  8973.3332       0.20533689       
  8973.5958       0.20667515       
  8973.8679       0.20810198       
  8974.1183       0.20972227       
  8974.3454       0.21148732       
  8974.5707       0.21346115       
  8974.8160       0.21570994       
  8975.0899       0.21823377       
  8975.3595       0.22114245       
  8975.6039       0.22450085       
  8975.8328       0.22842150       
  8976.0712       0.23305175       
  8976.3382       0.23855568       
  8976.6244       0.24522282       
  8976.8880       0.25335083       
  8977.1265       0.26354414       
  8977.3597       0.27628651       
  8977.6130       0.29265936       
  8977.8914       0.31386546       
  8978.1620       0.34174515       
  8978.4266       0.38193228       
  8978.6504       0.42682131       
  8978.8864       0.47856235       
  8979.1475       0.53404405       
  8979.4225       0.58907828       
  8979.6724       0.63851750       
  8979.8989       0.67946410       
  8980.1245       0.71106045       
  8980.3727       0.73424466       
  8980.6461       0.74999842       
  8980.9204       0.75984006       
  8981.1617       0.76444761       
  8981.3917       0.76477947       
  8981.6304       0.76170947       
  8981.8986       0.75626329       
  8982.1834       0.74970721       
  8982.4474       0.74321196       
  8982.6853       0.73818790       
  8982.9214       0.73559864       
  8983.1750       0.73616829       
  8983.4564       0.74015457       
  8983.7265       0.74744565       
  8983.9671       0.75746050       
  8984.1903       0.76919710       
  8984.4283       0.78215154       
  8984.6906       0.79521771       
  8984.9669       0.80781871       
  8985.2188       0.81971786       
  8985.4734       0.83247782       
  8985.7028       0.84360388       
  8985.9522       0.85484617       
  8986.2302       0.86661359       
  8986.5031       0.87926333       
  8986.7464       0.89293214       
  8986.9759       0.90775227       
  8987.2210       0.92412925       
  8987.4931       0.94184661       
  8987.7808       0.96112345       
  8988.0399       0.98178801       
  8988.2790        1.0041143       
  8988.5172        1.0275474       
  8988.7780        1.0520847       
  8989.0597        1.0775349       
  8989.3285        1.1041598       
  8989.5650        1.1311879       
  8989.7920        1.1585571       
  8990.0312        1.1858005       
  8990.3008        1.2131618       
  8990.5774        1.2398021       
  8990.8262        1.2657192       
  8991.0532        1.2906422       
  8991.2838        1.3147594       
  8991.5370        1.3373870       
  8991.8171        1.3585406       
  8992.0851        1.3778351       
  8992.3271        1.3950204       
  8992.5559        1.4095053       
  8992.8005        1.4211728       
  8993.0720        1.4296030       
  8993.3584        1.4347468       
  8993.6134        1.4366244       
  8993.8493        1.4354590       
  8994.0861        1.4317629       
  8994.3464        1.4259186       
  8994.6294        1.4184646       
  8994.8967        1.4098883       
  8995.1335        1.4005973       
  8995.3591        1.3909383       
  8995.5968        1.3812238       
  8995.8607        1.3715611       
  8996.1333        1.3622071       
  8996.3824        1.3531535       
  8996.6089        1.3448107       
  8996.8362        1.3370850       
  8997.0845        1.3302610       
  8997.3598        1.3244296       
  8997.6290        1.3197881       
  8997.8712        1.3163842       
  8998.0969        1.3143630       
  8998.3356        1.3138229       
  8998.6040        1.3149372       
  8998.8890        1.3177137       
  8999.1487        1.3221972       
  8999.3858        1.3284198       
  8999.6177        1.3362664       
  8999.8713        1.3456263       
  9000.1485        1.3562061       
  9000.4197        1.3678933       
  9000.6603        1.3802800       
  9000.8844        1.3928841       
  9001.1146        1.4052391       
  9001.3709        1.4171962       
  9001.6430        1.4281150       
  9001.8959        1.4375454       
  9002.1244        1.4452405       
  9002.3459        1.4507881       
  9002.5832        1.4540572       
  9002.8492        1.4550182       
  9003.1197        1.4535729       
  9003.3683        1.4500478       
  9003.5942        1.4445909       
  9003.8237        1.4375501       
  9004.0767        1.4291914       
  9004.3577        1.4199381       
  9004.6273        1.4101568       
  9004.8691        1.4002016       
  9005.0969        1.3903450       
  9005.3386        1.3807622       
  9005.6040        1.3717814       
  9005.8815        1.3633955       
  9006.1321        1.3557393       
  9006.3599        1.3487290       
  9006.5843        1.3422372       
  9006.8252        1.3362173       
  9007.0907        1.3306093       
  9007.3579        1.3251461       
  9007.5971        1.3197221       
  9007.8207        1.3142402       
  9008.0486        1.3087462       
  9008.3019        1.3030618       
  9008.5779        1.2974140       
  9008.8426        1.2917745       
  9009.0775        1.2863151       
  9009.3047        1.2811967       
  9010.4300        1.2649479       
  9011.5215        1.2607255       
  9012.5757        1.2643196       
  9013.6791        1.2716967       
  9014.8327        1.2829601       
  9016.0487        1.3002214       
  9017.2746        1.3230199       
  9018.4528        1.3473658       
  9019.6732        1.3717898       
  9020.8914        1.3945311       
  9022.1958        1.4177007       
  9023.4761        1.4375669       
  9024.7698        1.4498367       
  9026.0877        1.4486462       
  9027.4620        1.4320637       
  9028.8394        1.4061728       
  9030.1839        1.3782893       
  9031.6008        1.3503325       
  9033.0208        1.3291149       
  9034.4694        1.3157019       
  9035.8965        1.3093420       
  9037.3741        1.3091852       
  9038.8927        1.3147943       
  9040.4004        1.3227971       
  9041.9315        1.3281655       
  9043.5150        1.3277330       
  9045.1494        1.3243705       
  9046.7570        1.3254563       
  9048.3934        1.3336144       
  9050.0701        1.3437391       
  9051.7263        1.3484679       
  9053.4563        1.3487936       
  9055.2276        1.3510667       
  9056.9537        1.3595456       
  9058.6902        1.3726195       
  9060.5122        1.3846672       
  9062.3597        1.3933893       
  9064.1169        1.4007329       
  9065.9341        1.4097201       
  9067.8706        1.4221609       
  9069.6831        1.4346338       
  9071.5292        1.4420897       
  9073.4921        1.4395452       
  9075.3823        1.4268310       
  9077.2609        1.4068605       
  9079.3009        1.3836117       
  9081.1936        1.3638064       
  9083.1990        1.3459746       
  9085.2222        1.3306771       
  9087.1725        1.3215649       
  9089.2723        1.3150209       
  9091.2885        1.3029643       
  9093.3661        1.2857259       
  9095.4091        1.2685903       
  9097.5475        1.2579020       
  9099.5916        1.2574182       
  9101.7846        1.2664389       
  9103.8984        1.2816312       
  9106.1195        1.2996127       
  9108.3167        1.3158112       
  9110.5650        1.3278785       
  9112.8154        1.3347685       
  9115.1009        1.3361408       
  9117.3562        1.3353325       
  9119.6664        1.3377847       
  9121.9859        1.3488009       
  9124.3218        1.3715728       
  9126.7020        1.4001799       
  9129.0916        1.4230730       
  9131.4286        1.4325261       
  9133.8225        1.4301349       
  9136.2761        1.4217970       
  9138.6429        1.4096948       
  9141.1298        1.3928572       
  9143.6325        1.3702046       
  9146.1086        1.3425364       
  9148.6375        1.3120373       
  9151.1778        1.2811867       
  9153.7944        1.2510034       
  9156.3240        1.2280676       
  9158.9274        1.2170651       
  9161.5016        1.2210821       
  9164.1577        1.2381515       
  9166.8055        1.2623390       
  9169.4747        1.2861239       
  9172.1474        1.3029762       
  9174.8253        1.3117519       
  9177.5401        1.3137302       
  9180.2785        1.3107253       
  9183.0857        1.3064741       
  9185.9083        1.3037726       
  9188.7663        1.3019941       
  9191.5834        1.2989867       
  9194.4778        1.2944310       
  9197.3450        1.2926973       
  9200.2888        1.2996354       
  9203.1824        1.3147835       
  9206.1401        1.3307427       
  9209.0713        1.3387031       
  9212.0905        1.3391876       
  9215.0649        1.3352754       
  9218.1210        1.3272652       
  9221.1618        1.3146039       
  9224.2523        1.2971278       
  9227.3532        1.2776636       
  9230.4939        1.2590141       
  9233.6422        1.2434683       
  9236.7891        1.2331751       
  9239.9612        1.2291452       
  9243.1282        1.2300352       
  9246.3443        1.2321305       
  9249.5600        1.2327531       
  9252.8518        1.2332120       
  9256.0269        1.2343330       
  9259.2856        1.2359080       
  9262.5225        1.2386481       
  9265.8237        1.2426257       
  9269.1626        1.2466143       
  9272.4983        1.2498308       
  9275.8208        1.2518329       
  9279.2088        1.2532628       
  9282.6662        1.2537650       
  9286.0342        1.2558016       
  9289.4875        1.2567050       
  9292.9919        1.2572899       
  9296.4412        1.2571630       
  9299.9481        1.2541566       
  9303.5407        1.2480781       
  9307.0914        1.2406006       
  9310.6786        1.2326872       
  9314.2535        1.2245398       
  9317.8220        1.2174134       
  9321.4728        1.2127625       
  9325.0882        1.2103386       
  9328.7289        1.2084002       
  9332.3519        1.2047987       
  9336.0285        1.1990228       
  9339.7071        1.1921981       
  9343.3605        1.1870735       
  9347.1392        1.1857516       
  9350.7986        1.1862625       
  9354.5712        1.1860376       
  9358.2582        1.1859105       
  9362.1315        1.1863846       
  9365.8625        1.1868716       
  9369.7546        1.1874519       
  9373.5969        1.1878993       
  9377.4927        1.1883655       
  9381.3738        1.1886734       
  9385.3076        1.1884932       
  9389.2704        1.1878596       
  9393.2005        1.1870449       
  9397.2397        1.1856367       
  9401.1699        1.1831234       
  9405.1742        1.1793669       
  9409.2668        1.1744973       
  9413.2217        1.1690261       
  9417.2566        1.1638580       
  9421.3227        1.1598364       
  9425.2918        1.1570845       
  9429.3947        1.1550792       
  9433.4850        1.1532635       
  9437.5415        1.1510948       
  9441.7496        1.1484643       
  9445.9596        1.1452104       
  9450.1118        1.1413424       
  9454.2794        1.1378015       
  9458.5047        1.1350892       
  9462.7165        1.1330804       
  9466.9147        1.1309692       
  9471.1942        1.1287649       
  9475.4883        1.1270540       
  9479.7602        1.1258801       
  9484.1311        1.1251972       
  9488.5421        1.1248228       
  9492.9340        1.1245041       
  9497.3884        1.1240992       
  9501.8793        1.1236603       
  9506.3872        1.1229339       
  9510.8760        1.1214223       
  9515.4102        1.1190077       
  9519.9097        1.1156795       
  9524.4282        1.1117264       
  9528.9541        1.1077896       
  9533.5736        1.1042145       
  9538.1761        1.1013824       
  9542.8176        1.0986643       
  9547.4863        1.0961563       
  9552.1862        1.0937724       
  9556.9047        1.0914607       
  9561.6171        1.0891231       
  9566.3195        1.0866141       
  9571.0473        1.0841509       
  9575.7958        1.0816425       
  9580.5164        1.0790733       
  9585.2566        1.0765138       
  9590.0195        1.0742360       
  9594.7713        1.0722356       
  9599.5468        1.0703282       
  9604.3501        1.0685610       
  9609.1932        1.0668231       
  9614.0513        1.0651873       
  9618.9334        1.0633801       
  9623.8256        1.0617482       
  9628.7569        1.0600856       
  9633.7544        1.0582114       
  9638.7503        1.0561027       
  9643.7655        1.0539249       
  9648.7860        1.0516023       
  9653.8039        1.0492188       
  9658.8996        1.0466665       
  9663.9453        1.0441177       
  9669.0146        1.0415666       
  9674.1086        1.0390605       
  9679.2414        1.0365780       
  9684.4102        1.0339641       
  9689.5785        1.0314171       
  9694.6774        1.0289219       
  9699.8183        1.0265758       
  9705.0584        1.0241960       
  9710.4193        1.0217974       
  9715.7201        1.0193533       
  9721.0124        1.0170398       
  9726.3454        1.0147099       
  9731.7407        1.0124140       
  9737.0990        1.0102358       
  9742.4337        1.0081842       
  9747.8554        1.0061747       
  9753.2175        1.0042163       
  9758.5784        1.0022646       
  9764.0216        1.0002023       
  9769.5009       0.99815024       
  9774.9059       0.99594359       
  9780.3460       0.99369964       
  9785.8068       0.99145067       
  9791.2604       0.98927189       
  9796.7325       0.98707015       
  9802.3408       0.98479585       
  9807.9680       0.98250087       
  9813.5696       0.98012467       
  9819.2725       0.97771305       
  9824.8946       0.97539694       
  9830.6235       0.97291455       
  9836.3656       0.97047400       
